#9.000083334104945;0.21#
#9.002861137603126;0.21#
#9.005638941101306;0.235#
#9.008416744599486;0.26#
#9.011194548097667;0.265#
#9.013972351595848;0.255#
#9.016750155094028;0.25#
#9.019527958592208;0.26#
#9.02230576209039;0.3#
#9.02508356558857;0.31#
#9.02786136908675;0.295#
#9.03063917258493;0.28#
#9.033416976083112;0.255#
#9.036194779581292;0.255#
#9.038972583079472;0.25#
#9.041750386577654;0.26#
#9.044528190075834;0.245#
#9.047305993574014;0.23#
#9.050083797072196;0.2#
#9.052861600570376;0.19#
#9.055639404068556;0.185#
#9.058417207566736;0.18#
#9.061195011064918;0.15#
#9.063972814563098;0.1#
#9.066750618061278;0.085#
#9.06952842155946;0.055#
#9.07230622505764;0.06#
#9.07508402855582;0.07#
#9.077861832054;0.06#
#9.080639635552181;0.04#
#9.083417439050361;0.02#
#9.086195242548541;0.0#
#9.088973046046723;0.0#
#9.091750849544903;0.03#
#9.094528653043083;0.03#
#9.097306456541263;0.02#
#9.100084260039445;0.005#
#9.102862063537625;0.0#
#9.105639867035805;0.005#
#9.108417670533987;0.005#
#9.111195474032167;-0.005#
#9.113973277530347;-0.065#
#9.116751081028529;-0.15#
#9.119528884526709;-0.17#
#9.122306688024889;-0.145#
#9.125084491523069;-0.07#
#9.12786229502125;0.06#
#9.13064009851943;0.195#
#9.13341790201761;0.365#
#9.136195705515792;0.62#
#9.138973509013972;0.895#
#9.141751312512152;1.19#
#9.144529116010332;1.37#
#9.147306919508514;1.33#
#9.150084723006694;1.065#
#9.152862526504874;0.745#
#9.155640330003056;0.455#
#9.158418133501236;0.2#
#9.161195936999416;0.035#
#9.163973740497596;-0.035#
#9.166751543995778;-0.03#
#9.169529347493958;-0.055#
#9.172307150992138;-0.045#
#9.17508495449032;-0.015#
#9.1778627579885;-0.01#
#9.18064056148668;-0.005#
#9.183418364984862;-0.05#
#9.186196168483042;-0.07#
#9.188973971981222;-0.075#
#9.191751775479402;-0.06#
#9.194529578977583;-0.065#
#9.197307382475763;-0.085#
#9.200085185973943;-0.125#
#9.202862989472125;-0.13#
#9.205640792970305;-0.11#
#9.208418596468485;-0.085#
#9.211196399966665;-0.08#
#9.213974203464847;-0.07#
#9.216752006963027;-0.1#
#9.219529810461207;-0.09#
#9.222307613959389;-0.09#
#9.225085417457569;-0.065#
#9.227863220955749;-0.08#
#9.230641024453929;-0.075#
#9.23341882795211;-0.115#
#9.23619663145029;-0.115#
#9.23897443494847;-0.11#
#9.241752238446653;-0.095#
#9.244530041944833;-0.085#
#9.247307845443013;-0.085#
#9.250085648941194;-0.09#
#9.252863452439374;-0.095#
#9.255641255937554;-0.09#
#9.258419059435735;-0.075#
#9.261196862933916;-0.055#
#9.263974666432096;-0.06#
#9.266752469930276;-0.065#
#9.269530273428458;-0.08#
#9.272308076926638;-0.07#
#9.275085880424818;-0.05#
#9.277863683922998;-0.035#
#9.28064148742118;-0.04#
#9.28341929091936;-0.045#
#9.28619709441754;-0.035#
#9.288974897915722;-0.015#
#9.291752701413902;-0.005#
#9.294530504912082;0.01#
#9.297308308410262;0.015#
#9.300086111908444;0.0#
#9.302863915406624;-0.005#
#9.305641718904804;0.005#
#9.308419522402986;0.005#
#9.311197325901166;0.015#
#9.313975129399346;0.025#
#9.316752932897527;0.015#
#9.319530736395707;0.0#
#9.322308539893887;0.02#
#9.325086343392067;0.055#
#9.32786414689025;0.045#
#9.33064195038843;0.045#
#9.33341975388661;0.03#
#9.336197557384791;0.035#
#9.338975360882971;0.05#
#9.341753164381151;0.095#
#9.344530967879331;0.105#
#9.347308771377513;0.105#
#9.350086574875693;0.105#
#9.352864378373873;0.105#
#9.355642181872055;0.11#
#9.358419985370235;0.125#
#9.361197788868415;0.16#
#9.363975592366595;0.16#
#9.366753395864777;0.13#
#9.369531199362957;0.13#
#9.372309002861137;0.135#
#9.375086806359318;0.155#
#9.377864609857498;0.155#
#9.380642413355678;0.165#
#9.38342021685386;0.16#
#9.38619802035204;0.16#
#9.38897582385022;0.145#
#9.3917536273484;0.135#
#9.394531430846582;0.135#
#9.397309234344762;0.105#
#9.400087037842942;0.06#
#9.402864841341124;0.02#
#9.405642644839304;0.0#
#9.408420448337484;0.015#
#9.411198251835664;0.03#
#9.413976055333846;0.015#
#9.416753858832026;-0.015#
#9.419531662330206;-0.03#
#9.422309465828388;-0.025#
#9.425087269326568;-0.02#
#9.427865072824748;-0.015#
#9.430642876322928;-0.015#
#9.43342067982111;-0.04#
#9.43619848331929;-0.04#
#9.43897628681747;-0.045#
#9.441754090315651;-0.025#
#9.444531893813831;-0.02#
#9.447309697312011;-0.015#
#9.450087500810193;-0.025#
#9.452865304308373;-0.005#
#9.455643107806553;0.02#
#9.458420911304733;0.035#
#9.461198714802915;0.05#
#9.463976518301095;0.04#
#9.466754321799275;0.035#
#9.469532125297457;0.015#
#9.472309928795637;0.05#
#9.475087732293817;0.085#
#9.477865535791997;0.105#
#9.480643339290179;0.095#
#9.483421142788359;0.05#
#9.486198946286539;0.06#
#9.48897674978472;0.065#
#9.4917545532829;0.065#
#9.49453235678108;0.065#
#9.49731016027926;0.055#
#9.500087963777442;0.045#
#9.502865767275622;0.015#
#9.505643570773803;-0.01#
#9.508421374271984;-0.035#
#9.511199177770164;-0.04#
#9.513976981268344;-0.055#
#9.516754784766526;-0.08#
#9.519532588264706;-0.105#
#9.522310391762886;-0.11#
#9.525088195261066;-0.1#
#9.527865998759248;-0.12#
#9.530643802257428;-0.15#
#9.533421605755608;-0.195#
#9.53619940925379;-0.215#
#9.53897721275197;-0.195#
#9.54175501625015;-0.185#
#9.54453281974833;-0.175#
#9.547310623246512;-0.17#
#9.550088426744692;-0.175#
#9.552866230242872;-0.175#
#9.555644033741054;-0.18#
#9.558421837239234;-0.165#
#9.561199640737414;-0.18#
#9.563977444235594;-0.2#
#9.566755247733775;-0.275#
#9.569533051231955;-0.335#
#9.572310854730135;-0.355#
#9.575088658228317;-0.335#
#9.577866461726497;-0.3#
#9.580644265224677;-0.245#
#9.583422068722859;-0.12#
#9.586199872221039;0.075#
#9.588977675719219;0.34#
#9.5917554792174;0.655#
#9.594533282715581;0.935#
#9.597311086213761;1.13#
#9.600088889711941;1.2#
#9.602866693210123;1.04#
#9.605644496708303;0.755#
#9.608422300206483;0.445#
#9.611200103704663;0.155#
#9.613977907202845;-0.07#
#9.616755710701025;-0.175#
#9.619533514199205;-0.19#
#9.622311317697386;-0.195#
#9.625089121195566;-0.18#
#9.627866924693746;-0.17#
#9.630644728191927;-0.165#
#9.633422531690108;-0.16#
#9.636200335188288;-0.175#
#9.638978138686468;-0.17#
#9.64175594218465;-0.2#
#9.64453374568283;-0.205#
#9.64731154918101;-0.245#
#9.650089352679192;-0.28#
#9.652867156177372;-0.325#
#9.655644959675552;-0.335#
#9.658422763173732;-0.31#
#9.661200566671914;-0.29#
#9.663978370170094;-0.28#
#9.666756173668274;-0.275#
#9.669533977166456;-0.305#
#9.672311780664636;-0.315#
#9.675089584162816;-0.3#
#9.677867387660996;-0.275#
#9.680645191159178;-0.24#
#9.683422994657358;-0.26#
#9.686200798155538;-0.295#
#9.68897860165372;-0.3#
#9.6917564051519;-0.26#
#9.69453420865008;-0.23#
#9.69731201214826;-0.235#
#9.700089815646441;-0.275#
#9.702867619144621;-0.31#
#9.705645422642801;-0.355#
#9.708423226140983;-0.365#
#9.711201029639163;-0.355#
#9.713978833137343;-0.34#
#9.716756636635525;-0.335#
#9.719534440133705;-0.33#
#9.722312243631885;-0.315#
#9.725090047130065;-0.305#
#9.727867850628247;-0.32#
#9.730645654126427;-0.35#
#9.733423457624607;-0.34#
#9.736201261122789;-0.335#
#9.738979064620969;-0.35#
#9.741756868119149;-0.35#
#9.744534671617329;-0.33#
#9.74731247511551;-0.28#
#9.75009027861369;-0.25#
#9.75286808211187;-0.26#
#9.755645885610052;-0.27#
#9.758423689108232;-0.25#
#9.761201492606412;-0.24#
#9.763979296104592;-0.25#
#9.766757099602774;-0.26#
#9.769534903100954;-0.26#
#9.772312706599134;-0.24#
#9.775090510097316;-0.225#
#9.777868313595496;-0.235#
#9.780646117093676;-0.26#
#9.783423920591858;-0.255#
#9.786201724090038;-0.225#
#9.788979527588218;-0.19#
#9.791757331086398;-0.15#
#9.79453513458458;-0.12#
#9.79731293808276;-0.1#
#9.80009074158094;-0.105#
#9.802868545079122;-0.11#
#9.805646348577302;-0.125#
#9.808424152075482;-0.11#
#9.811201955573662;-0.105#
#9.813979759071843;-0.115#
#9.816757562570023;-0.14#
#9.819535366068203;-0.155#
#9.822313169566385;-0.145#
#9.825090973064565;-0.125#
#9.827868776562745;-0.12#
#9.830646580060925;-0.13#
#9.833424383559107;-0.14#
#9.836202187057287;-0.155#
#9.838979990555467;-0.165#
#9.841757794053649;-0.16#
#9.844535597551829;-0.16#
#9.847313401050009;-0.155#
#9.85009120454819;-0.17#
#9.85286900804637;-0.195#
#9.85564681154455;-0.205#
#9.85842461504273;-0.21#
#9.861202418540913;-0.24#
#9.863980222039093;-0.26#
#9.866758025537273;-0.265#
#9.869535829035454;-0.28#
#9.872313632533634;-0.295#
#9.875091436031814;-0.32#
#9.877869239529995;-0.31#
#9.880647043028176;-0.325#
#9.883424846526356;-0.375#
#9.886202650024536;-0.39#
#9.888980453522718;-0.415#
#9.891758257020898;-0.4#
#9.894536060519078;-0.38#
#9.897313864017258;-0.4#
#9.90009166751544;-0.42#
#9.90286947101362;-0.42#
#9.9056472745118;-0.395#
#9.908425078009982;-0.355#
#9.911202881508162;-0.355#
#9.913980685006342;-0.365#
#9.916758488504524;-0.365#
#9.919536292002704;-0.38#
#9.922314095500884;-0.375#
#9.925091898999064;-0.345#
#9.927869702497246;-0.315#
#9.930647505995426;-0.285#
#9.933425309493606;-0.285#
#9.936203112991787;-0.315#
#9.938980916489967;-0.315#
#9.941758719988147;-0.285#
#9.944536523486327;-0.285#
#9.94731432698451;-0.33#
#9.95009213048269;-0.4#
#9.95286993398087;-0.44#
#9.955647737479051;-0.43#
#9.958425540977231;-0.415#
#9.961203344475411;-0.435#
#9.963981147973593;-0.485#
#9.966758951471773;-0.53#
#9.969536754969953;-0.54#
#9.972314558468133;-0.565#
#9.975092361966315;-0.555#
#9.977870165464495;-0.545#
#9.980647968962675;-0.575#
#9.983425772460857;-0.605#
#9.986203575959037;-0.61#
#9.988981379457217;-0.57#
#9.991759182955397;-0.57#
#9.994536986453578;-0.59#
#9.997314789951758;-0.605#
#10.000092593449939;-0.61#
#10.00287039694812;-0.62#
#10.0056482004463;-0.64#
#10.00842600394448;-0.71#
#10.01120380744266;-0.77#
#10.013981610940842;-0.82#
#10.016759414439022;-0.805#
#10.019537217937202;-0.69#
#10.022315021435384;-0.49#
#10.025092824933564;-0.25#
#10.027870628431744;-0.01#
#10.030648431929926;0.24#
#10.033426235428106;0.49#
#10.036204038926286;0.715#
#10.038981842424466;0.81#
#10.041759645922648;0.685#
#10.044537449420828;0.36#
#10.047315252919008;0.005#
#10.05009305641719;-0.305#
#10.05287085991537;-0.525#
#10.05564866341355;-0.595#
#10.05842646691173;-0.585#
#10.061204270409911;-0.58#
#10.063982073908091;-0.6#
#10.066759877406271;-0.64#
#10.069537680904453;-0.655#
#10.072315484402633;-0.655#
#10.075093287900813;-0.635#
#10.077871091398993;-0.625#
#10.080648894897175;-0.63#
#10.083426698395355;-0.67#
#10.086204501893535;-0.695#
#10.088982305391717;-0.675#
#10.091760108889897;-0.68#
#10.094537912388077;-0.685#
#10.097315715886259;-0.695#
#10.100093519384439;-0.7#
#10.102871322882619;-0.72#
#10.105649126380799;-0.725#
#10.10842692987898;-0.725#
#10.11120473337716;-0.71#
#10.11398253687534;-0.685#
#10.116760340373522;-0.7#
#10.119538143871702;-0.725#
#10.122315947369882;-0.735#
#10.125093750868063;-0.71#
#10.127871554366244;-0.685#
#10.130649357864424;-0.675#
#10.133427161362604;-0.69#
#10.136204964860786;-0.695#
#10.138982768358966;-0.69#
#10.141760571857146;-0.665#
#10.144538375355326;-0.65#
#10.147316178853508;-0.685#
#10.150093982351688;-0.705#
#10.152871785849868;-0.7#
#10.15564958934805;-0.65#
#10.15842739284623;-0.62#
#10.16120519634441;-0.62#
#10.163982999842592;-0.655#
#10.166760803340772;-0.675#
#10.169538606838952;-0.665#
#10.172316410337132;-0.64#
#10.175094213835314;-0.6#
#10.177872017333494;-0.565#
#10.180649820831674;-0.57#
#10.183427624329855;-0.585#
#10.186205427828035;-0.58#
#10.188983231326215;-0.575#
#10.191761034824395;-0.545#
#10.194538838322577;-0.535#
#10.197316641820757;-0.545#
